wavelength,TTot,RTot
4.0000000000000003e-07,0.9158852201077815,0.08411477989221822
4.040404040404041e-07,0.9129581581472273,0.08704184185277335
4.080808080808081e-07,0.9103594208878407,0.0896405791121592
4.121212121212122e-07,0.9080945544508953,0.09190544554910532
4.161616161616162e-07,0.9061638841547515,0.09383611584524885
4.2020202020202026e-07,0.9045634394904353,0.0954365605095647
4.2424242424242427e-07,0.903285762148248,0.09671423785175255
4.2828282828282833e-07,0.9023206046236836,0.09767939537631727
4.3232323232323235e-07,0.9016555290720235,0.09834447092797617
4.363636363636364e-07,0.9012764169795017,0.09872358302049906
4.404040404040404e-07,0.9011679002852683,0.09883209971473252
4.444444444444445e-07,0.9013137241269541,0.09868627587304697
4.484848484848485e-07,0.9016970506132668,0.0983029493867333
4.5252525252525257e-07,0.9023007121033257,0.09769928789667483
4.565656565656566e-07,0.9031074214977465,0.09689257850225283
4.6060606060606064e-07,0.9040999460879471,0.09590005391205186
4.646464646464647e-07,0.9052612506081518,0.09473874939184793
4.686868686868687e-07,0.9065746143116888,0.09342538568831106
4.7272727272727273e-07,0.9080237261590749,0.09197627384092548
4.767676767676768e-07,0.909592761561955,0.09040723843804523
4.808080808080809e-07,0.9112664435708564,0.08873355642914321
4.848484848484849e-07,0.913030090919635,0.08696990908036482
4.888888888888889e-07,0.9148696549376639,0.08513034506233698
4.92929292929293e-07,0.9167717470039143,0.08322825299608615
4.96969696969697e-07,0.9187236579368128,0.08127634206318694
5.01010101010101e-07,0.9207133704821748,0.07928662951782546
5.05050505050505e-07,0.9227295658715613,0.07727043412843859
5.090909090909092e-07,0.9247616252683439,0.07523837473165568
5.131313131313132e-07,0.926799626792918,0.07320037320708185
5.171717171717172e-07,0.9288343387168454,0.07116566128315481
5.212121212121212e-07,0.9308572093338137,0.06914279066618621
5.252525252525253e-07,0.9328603539494597,0.06713964605054085
5.292929292929293e-07,0.9348365393791301,0.06516346062087024
5.333333333333333e-07,0.9367791662999682,0.06322083370003208
5.373737373737375e-07,0.938682249768942,0.06131775023105744
5.414141414141415e-07,0.9405403981899539,0.05945960181004712
5.454545454545455e-07,0.942348790989291,0.05765120901070948
5.494949494949495e-07,0.9441031552384243,0.05589684476157567
5.535353535353535e-07,0.9457997414453195,0.05420025855468083
5.575757575757576e-07,0.9474352987195582,0.05256470128044166
5.616161616161616e-07,0.9490070495018705,0.05099295049812929
5.656565656565658e-07,0.9505126640348398,0.049487335965160896
5.696969696969698e-07,0.9519502347383061,0.048049765261694306
5.737373737373738e-07,0.9533182506400811,0.04668174935991814
5.777777777777778e-07,0.9546155719999151,0.04538442800008488
5.818181818181818e-07,0.9558414052521851,0.044158594747815194
5.858585858585859e-07,0.956995278380496,0.04300472161950348
5.898989898989899e-07,0.958077016825231,0.04192298317476975
5.93939393939394e-07,0.9590867200132165,0.040913279986783145
5.979797979797981e-07,0.960024738587126,0.03997526141287419
6.020202020202021e-07,0.9608916524009097,0.039108347599090404
6.060606060606061e-07,0.9616882493368295,0.0383117506631712
6.101010101010101e-07,0.962415504989241,0.03758449501075989
6.141414141414141e-07,0.9630745632505225,0.036925436749477195
6.181818181818182e-07,0.9636667178252983,0.0363332821747021
6.222222222222223e-07,0.9641933946904975,0.03580660530950275
6.262626262626264e-07,0.9646561355108861,0.03534386448911337
6.303030303030304e-07,0.965056582012383,0.03494341798761675
6.343434343434344e-07,0.9653964613089031,0.03460353869109695
6.383838383838384e-07,0.9656775721725651,0.03432242782743428
6.424242424242424e-07,0.965901772231842,0.03409822776815788
6.464646464646464e-07,0.9660709660776454,0.03392903392235388
6.505050505050506e-07,0.9661870942534145,0.03381290574658494
6.545454545454546e-07,0.9662521231018832,0.03374787689811728
6.585858585858587e-07,0.9662680354384711,0.03373196456153001
6.626262626262627e-07,0.9662368220189804,0.03376317798101892
6.666666666666667e-07,0.9661604737675565,0.03383952623244403
6.707070707070707e-07,0.9660409747295464,0.033959025270452615
6.747474747474747e-07,0.9658802957131255,0.034119704286874594
6.787878787878789e-07,0.965680388582932,0.034319611417067644
6.828282828282829e-07,0.9654431811689563,0.03455681883104352
6.86868686868687e-07,0.9651705727539451,0.03482942724605376
6.90909090909091e-07,0.9648644301030977,0.035135569896902946
6.94949494949495e-07,0.9645265840003794,0.0354734159996211
6.98989898989899e-07,0.9641588262566992,0.03584117374330063
7.03030303030303e-07,0.9637629071560891,0.036237092843911516
7.07070707070707e-07,0.9633405333072105,0.036659466692790715
7.111111111111112e-07,0.9628933658687261,0.0371066341312744
7.151515151515152e-07,0.962423019118363,0.037576980881637696
7.191919191919193e-07,0.9619310593368636,0.038068940663136625
7.232323232323233e-07,0.9614190039794536,0.03858099602054696
7.272727272727273e-07,0.9608883211088447,0.03911167889115521
7.313131313131313e-07,0.9603404290652603,0.039659570934739694
7.353535353535353e-07,0.9597766963503784,0.040223303649621706
7.393939393939395e-07,0.9591984417035223,0.0408015582964778
7.434343434343435e-07,0.9586069343498013,0.041393065650198624
7.474747474747476e-07,0.9580033944012728,0.04199660559872841
7.515151515151516e-07,0.9573889933934903,0.04261100660650966
7.555555555555556e-07,0.9567648549411201,0.04323514505888069
7.595959595959596e-07,0.9561320554974453,0.043867944502555704
7.636363636363636e-07,0.9554916252038438,0.04450837479615642
7.676767676767677e-07,0.9548445488163664,0.04515545118363355
7.717171717171718e-07,0.9541917666976149,0.04580823330238571
7.757575757575758e-07,0.9535341758631475,0.046465824136853386
7.797979797979799e-07,0.9528726310725573,0.04712736892744342
7.838383838383839e-07,0.9522079459562622,0.04779205404373794
7.878787878787879e-07,0.9515408941698855,0.0484591058301147
7.919191919191919e-07,0.9508722105688782,0.049127789431121456
7.95959595959596e-07,0.9502025923967767,0.049797407603223716
8.000000000000001e-07,0.9495327004811395,0.05046729951886158
