wavelength,TTot,RTot
5.000000000000001e-07,0.965895176911424,0.03410482308857617
5.005005005005006e-07,0.9658519934049963,0.034148006595003486
5.010010010010011e-07,0.9658084305607164,0.03419156943928156
5.015015015015016e-07,0.9657644936481797,0.034235506351819794
5.02002002002002e-07,0.9657201878920607,0.034279812107937756
5.025025025025025e-07,0.965675518472215,0.034324481527784806
5.030030030030031e-07,0.9656304905237448,0.03436950947625243
5.035035035035036e-07,0.9655851091371198,0.03441489086287895
5.040040040040041e-07,0.9655393793582449,0.03446062064175298
5.045045045045046e-07,0.9654933061885943,0.03450669381140574
5.050050050050051e-07,0.9654468945852944,0.03455310541470476
5.055055055055056e-07,0.9654001494612687,0.03459985053873324
5.060060060060061e-07,0.9653530756853268,0.03464692431467322
5.065065065065066e-07,0.9653056780823217,0.03469432191767806
5.070070070070071e-07,0.9652579614332565,0.03474203856674221
5.075075075075076e-07,0.9652099304754318,0.03479006952456619
5.08008008008008e-07,0.9651615899025842,0.03483841009741559
5.085085085085086e-07,0.9651129443650219,0.03488705563497829
5.090090090090091e-07,0.9650639984697859,0.03493600153021456
5.095095095095096e-07,0.9650147567807942,0.0349852432192055
5.100100100100101e-07,0.9649652238190036,0.035034776180993946
5.105105105105106e-07,0.9649154040625771,0.035084595937424315
5.110110110110111e-07,0.9648653019470184,0.03513469805298122
5.115115115115116e-07,0.9648149218653853,0.035185078134615286
5.120120120120121e-07,0.9647642681684241,0.03523573183157607
5.125125125125126e-07,0.964713345164765,0.03528665483523457
5.130130130130131e-07,0.9646621571210955,0.035337842878904555
5.135135135135135e-07,0.964610708262338,0.03538929173766118
5.140140140140141e-07,0.9645590027718446,0.035440997228155094
5.145145145145146e-07,0.9645070447915747,0.03549295520842496
5.150150150150151e-07,0.9644548384222924,0.035545161577707096
5.155155155155156e-07,0.9644023877237605,0.03559761227623956
5.160160160160161e-07,0.964349696714931,0.03565030328506897
5.165165165165166e-07,0.9642967693741519,0.035703230625847265
5.170170170170171e-07,0.9642436096393675,0.035756390360633036
5.175175175175176e-07,0.9641902214083125,0.035809778591687845
5.180180180180181e-07,0.9641366085387324,0.035863391461267095
5.185185185185186e-07,0.9640827748485873,0.035917225151413136
5.190190190190192e-07,0.9640287241162528,0.03597127588374596
5.195195195195196e-07,0.9639744600807529,0.03602553991924791
5.200200200200201e-07,0.9639199864419498,0.0360800135580498
5.205205205205206e-07,0.963865306860786,0.03613469313921411
5.210210210210211e-07,0.9638104249594834,0.036189575040517605
5.215215215215216e-07,0.9637553443217692,0.03624465567823018
5.220220220220221e-07,0.9637000684931081,0.03629993150689213
5.225225225225226e-07,0.9636446009809063,0.036355399019093446
5.230230230230231e-07,0.9635889452547551,0.03641105474524583
5.235235235235236e-07,0.9635331047466411,0.03646689525335801
5.240240240240241e-07,0.9634770828511897,0.036522917148808495
5.245245245245246e-07,0.9634208829258857,0.03657911707411453
5.250250250250252e-07,0.9633645082912969,0.036635491708703574
5.255255255255256e-07,0.963307962231319,0.03669203776868209
5.260260260260261e-07,0.9632512479933989,0.03674875200660184
5.265265265265266e-07,0.9631943687887741,0.036805631211225515
5.270270270270271e-07,0.9631373277927046,0.0368626722072952
5.275275275275276e-07,0.9630801281447057,0.036919871855294564
5.280280280280281e-07,0.9630227729487861,0.03697722705121277
5.285285285285286e-07,0.9629652652736915,0.03703473472630821
5.290290290290291e-07,0.9629076081531311,0.03709239184686937
5.295295295295296e-07,0.9628498045860228,0.037150195413977315
5.300300300300302e-07,0.9627918575367341,0.037208142463265856
5.305305305305307e-07,0.9627337699353188,0.037266230064681743
5.310310310310312e-07,0.9626755446777542,0.03732445532224486
5.315315315315316e-07,0.9626171846261949,0.03738281537380467
5.320320320320321e-07,0.962558692609196,0.037441307390803175
5.325325325325326e-07,0.9625000714219715,0.03749992857802893
5.330330330330331e-07,0.9624413238266227,0.037558676173376694
5.335335335335336e-07,0.9623824525523954,0.03761754744760447
5.340340340340341e-07,0.9623234602959101,0.037676539704090684
5.345345345345346e-07,0.9622643497214084,0.03773565027859118
5.350350350350351e-07,0.9622051234610043,0.037794876538994784
5.355355355355356e-07,0.9621457841149212,0.037854215885080374
5.360360360360362e-07,0.9620863342517276,0.03791366574827351
5.365365365365367e-07,0.9620267764085977,0.03797322359140169
5.370370370370371e-07,0.9619671130915513,0.03803288690844957
5.375375375375376e-07,0.9619073467756838,0.03809265322431672
5.380380380380381e-07,0.9618474799054264,0.0381525200945726
5.385385385385386e-07,0.9617875148947905,0.03821248510521029
5.390390390390391e-07,0.9617274541275942,0.0382725458724055
5.395395395395396e-07,0.9616672999577313,0.03833270004227008
5.400400400400401e-07,0.9616070547093908,0.03839294529060881
5.405405405405406e-07,0.9615467206773254,0.03845327932267444
5.410410410410412e-07,0.961486300127074,0.038513699872925175
5.415415415415417e-07,0.9614257952952225,0.03857420470477727
5.420420420420422e-07,0.9613652083896346,0.038634791610365676
5.425425425425427e-07,0.9613045415897006,0.038695458410298346
5.430430430430431e-07,0.9612437970465891,0.03875620295340988
5.435435435435436e-07,0.9611829768834763,0.038817023116523394
5.440440440440441e-07,0.9611220831957963,0.038877916804202696
5.445445445445446e-07,0.9610611180514861,0.03893888194851293
5.450450450450451e-07,0.9610000834912262,0.03899991650877301
5.455455455455456e-07,0.9609389815286811,0.03906101847131859
5.460460460460461e-07,0.9608778141507441,0.0391221858492558
5.465465465465467e-07,0.9608165833177812,0.03918341668221979
5.470470470470472e-07,0.9607552909638677,0.03924470903613307
5.475475475475477e-07,0.9606939389970356,0.03930606100296427
5.480480480480482e-07,0.9606325292995149,0.039367470700484644
5.485485485485486e-07,0.9605710637279705,0.039428936272029064
5.490490490490491e-07,0.9605095441137449,0.039490455886254106
5.495495495495496e-07,0.9604479722631044,0.039552027736895735
5.500500500500501e-07,0.9603863499574672,0.03961365004253262
5.505505505505506e-07,0.9603246789536601,0.039675321046340306
5.510510510510511e-07,0.9602629609841452,0.03973703901585462
5.515515515515516e-07,0.9602011977572686,0.03979880224273187
5.520520520520522e-07,0.9601393909574929,0.039860609042507475
5.525525525525527e-07,0.9600775422456429,0.039922457754356586
5.530530530530532e-07,0.9600156532591432,0.03998434674085624
5.535535535535537e-07,0.9599537256122548,0.04004627438774529
5.540540540540542e-07,0.9598917608963149,0.04010823910368505
5.545545545545546e-07,0.9598297606799797,0.04017023932002006
5.550550550550551e-07,0.9597677265094583,0.04023227349054079
5.555555555555556e-07,0.9597056599087561,0.04029434009124407
5.560560560560561e-07,0.9596435623799031,0.0403564376200964
5.565565565565566e-07,0.9595814354032068,0.04041856459679241
5.570570570570571e-07,0.959519280437481,0.04048071956251899
5.575575575575577e-07,0.9594570989202835,0.04054290107971641
5.580580580580582e-07,0.9593948922681583,0.04060510773184077
5.585585585585587e-07,0.9593326618768765,0.04066733812312384
5.590590590590592e-07,0.9592704091216607,0.04072959087833809
5.595595595595597e-07,0.9592081353574432,0.04079186464255499
5.600600600600601e-07,0.9591458419190917,0.04085415808090867
5.605605605605606e-07,0.9590835301216409,0.040916469878358855
5.610610610610611e-07,0.9590212012605527,0.04097879873944791
5.615615615615616e-07,0.9589588566119321,0.04104114338806717
5.620620620620621e-07,0.9588964974327853,0.041103502567214414
5.625625625625627e-07,0.958834124961242,0.04116587503875693
5.630630630630632e-07,0.9587717404168102,0.041228259583190874
5.635635635635637e-07,0.9587093450005967,0.04129065499940272
5.640640640640642e-07,0.9586469398955727,0.041353060104427096
5.645645645645647e-07,0.9585845262667898,0.041415473733209134
5.650650650650652e-07,0.9585221052616383,0.041477894738361755
5.655655655655657e-07,0.9584596780100755,0.04154032198992412
5.660660660660661e-07,0.9583972456248762,0.04160275437512255
5.665665665665666e-07,0.9583348092018751,0.04166519079812421
5.670670670670671e-07,0.9582723698202047,0.04172763017979543
5.675675675675676e-07,0.9582099285425407,0.04179007145746007
5.680680680680681e-07,0.9581474864153456,0.04185251358465328
5.685685685685687e-07,0.958085044469125,0.041914955530874536
5.690690690690692e-07,0.9580226037186553,0.041977396281344684
5.695695695695697e-07,0.9579601651632413,0.04203983483675791
5.700700700700702e-07,0.9578977297869674,0.04210227021303198
5.705705705705707e-07,0.957835298558938,0.042164701441061894
5.710710710710712e-07,0.957772872433533,0.04222712756646742
5.715715715715716e-07,0.9577104523506563,0.04228954764934385
5.720720720720721e-07,0.957648039235993,0.04235196076400705
5.725725725725726e-07,0.9575856340012583,0.042414365998741994
5.730730730730731e-07,0.957523237544455,0.042476762455545
5.735735735735737e-07,0.9574608507501302,0.04253914924986927
5.740740740740742e-07,0.9573984744896361,0.04260152551036418
5.745745745745747e-07,0.9573361096213828,0.04266389037861704
5.750750750750752e-07,0.9572737569911093,0.0427262430088908
5.755755755755757e-07,0.9572114174321402,0.0427885825678597
5.760760760760762e-07,0.9571490917656553,0.04285090823434384
5.765765765765767e-07,0.957086780800958,0.042913219199041744
5.770770770770772e-07,0.9570244853357383,0.04297551466426108
5.775775775775776e-07,0.9569622061563532,0.0430377938436457
5.780780780780781e-07,0.9568999440380992,0.04310005596190088
5.785785785785786e-07,0.9568376997454814,0.04316230025451854
5.790790790790791e-07,0.9567754740325053,0.04322452596749382
5.795795795795797e-07,0.9567132676429532,0.04328673235704652
5.800800800800802e-07,0.9566510813106651,0.04334891868933463
5.805805805805807e-07,0.9565889157598346,0.04341108424016559
5.810810810810812e-07,0.9565267717052933,0.04347322829470602
5.815815815815817e-07,0.9564646498528138,0.04353535014718576
5.820820820820822e-07,0.9564025508993976,0.04359744910060164
5.825825825825827e-07,0.9563404755335845,0.043659524466415224
5.830830830830831e-07,0.9562784244357521,0.04372157556424758
5.835835835835836e-07,0.9562163982784304,0.04378360172156952
5.840840840840841e-07,0.9561543977266088,0.043845602273390405
5.845845845845847e-07,0.9560924234380616,0.04390757656193873
5.850850850850852e-07,0.9560304760636582,0.04396952393634117
5.855855855855857e-07,0.9559685562477039,0.04403144375229516
5.860860860860862e-07,0.955906664628259,0.04409333537174061
5.865865865865867e-07,0.9558448018374792,0.04415519816252096
5.870870870870872e-07,0.9557829685019581,0.04421703149804214
5.875875875875877e-07,0.9557211652430736,0.044278834756927364
5.880880880880882e-07,0.9556593926773365,0.044340607322663594
5.885885885885887e-07,0.9555976514167559,0.04440234858324352
5.890890890890891e-07,0.9555359420691998,0.04446405793080043
5.895895895895896e-07,0.9554742652387603,0.04452573476123928
5.900900900900901e-07,0.9554126215261409,0.044587378473858914
5.905905905905907e-07,0.955351011529034,0.0446489884709663
5.910910910910912e-07,0.9552894358425128,0.04471056415748717
5.915915915915917e-07,0.9552278950594335,0.04477210494056672
5.920920920920922e-07,0.955166389770837,0.04483361022916264
5.925925925925927e-07,0.9551049205663692,0.04489507943363109
5.930930930930932e-07,0.9550434880346956,0.0449565119653042
5.935935935935937e-07,0.9549820927639416,0.04501790723605824
5.940940940940942e-07,0.9549207353421268,0.04507926465787253
5.945945945945947e-07,0.9548594163576194,0.0451405836423803
5.950950950950952e-07,0.95479813639959,0.045201863600409314
5.955955955955957e-07,0.9547368960584887,0.045263103941510764
5.960960960960962e-07,0.9546756959265198,0.045324304073480454
5.965965965965967e-07,0.9546145365981337,0.04538546340186611
5.970970970970972e-07,0.9545534186705331,0.04544658132946662
5.975975975975977e-07,0.9544923427441843,0.04550765725581506
5.980980980980982e-07,0.9544313094233458,0.04556869057665377
5.985985985985987e-07,0.9543703193166057,0.045629680683394694
5.990990990990992e-07,0.9543093730374339,0.04569062696256541
5.995995995995997e-07,0.9542484712047552,0.045751528795243704
6.001001001001002e-07,0.9541876144435231,0.04581238555647678
6.006006006006006e-07,0.9541268033853162,0.04587319661468359
6.011011011011011e-07,0.9540660386689547,0.045933961331045575
6.016016016016017e-07,0.9540053209411219,0.04599467905887843
6.021021021021022e-07,0.9539446508570125,0.046055349142987534
6.026026026026027e-07,0.953884029080992,0.0461159709190075
6.031031031031032e-07,0.9538234562872798,0.0461765437127207
6.036036036036037e-07,0.9537629331606386,0.046237066839361726
6.041041041041042e-07,0.9537024603971032,0.046297539602895836
6.046046046046047e-07,0.9536420387047164,0.04635796129528347
6.051051051051052e-07,0.95358166880428,0.04641833119572027
6.056056056056057e-07,0.9535213514301448,0.04647864856985544
6.061061061061063e-07,0.9534610873310139,0.04653891266898573
6.066066066066067e-07,0.9534008772707683,0.046599122729231085
6.071071071071072e-07,0.9533407220293206,0.04665927797067925
6.076076076076077e-07,0.9532806224034917,0.046719377596508585
6.081081081081082e-07,0.9532205792079174,0.04677942079208196
6.086086086086087e-07,0.9531605932759853,0.046839406724014265
6.091091091091092e-07,0.953100665460789,0.046899334539210746
6.096096096096097e-07,0.9530407966361241,0.04695920336387524
6.101101101101102e-07,0.9529809876975156,0.047019012302484876
6.106106106106107e-07,0.9529212395632639,0.0470787604367362
6.111111111111112e-07,0.9528615531755458,0.04713844682445398
6.116116116116117e-07,0.9528019295015351,0.047198070498465125
6.121121121121121e-07,0.9527423695345616,0.047257630465438356
6.126126126126127e-07,0.9526828742953191,0.04731712570468098
6.131131131131132e-07,0.9526234448331001,0.04737655516689947
6.136136136136137e-07,0.9525640822270822,0.04743591777291768
6.141141141141142e-07,0.9525047875876513,0.04749521241234833
6.146146146146147e-07,0.9524455620577736,0.047554437942226364
6.151151151151152e-07,0.9523864068144138,0.047613593185586146
6.156156156156157e-07,0.9523273230700025,0.0476726769299973
6.161161161161162e-07,0.9522683120739552,0.04773168792604397
6.166166166166167e-07,0.9522093751142447,0.04779062488575443
6.171171171171173e-07,0.9521505135190277,0.047849486480972515
6.176176176176178e-07,0.952091728658329,0.04790827134167075
6.181181181181182e-07,0.9520330219457959,0.04796697805420444
6.186186186186187e-07,0.9519743948404973,0.04802560515950313
6.191191191191192e-07,0.9519158488488079,0.04808415115119152
6.196196196196197e-07,0.9518573855263527,0.04814261447364726
6.201201201201202e-07,0.9517990064800187,0.04820099351998135
6.206206206206207e-07,0.951740713370052,0.04825928662994759
6.211211211211212e-07,0.951682507912229,0.04831749208777039
6.216216216216217e-07,0.951624391880108,0.04837560811989167
6.221221221221222e-07,0.9515663671073664,0.048433632892633416
6.226226226226227e-07,0.951508435490234,0.04849156450976605
6.231231231231232e-07,0.9514505989900109,0.0485494010099885
6.236236236236238e-07,0.9513928596356931,0.04860714036430659
6.241241241241242e-07,0.9513352195266913,0.04866478047330855
6.246246246246247e-07,0.951277680835663,0.04872231916433607
6.251251251251252e-07,0.9512202458114593,0.04877975418854071
6.256256256256257e-07,0.9511629167821772,0.04883708321782278
6.261261261261262e-07,0.9511056961583524,0.048894303841647765
6.266266266266267e-07,0.9510485864362668,0.04895141356373292
6.271271271271272e-07,0.9509915902013988,0.04900840979860087
6.276276276276278e-07,0.9509347101320131,0.04906528986798687
6.281281281281283e-07,0.9508779490028941,0.04912205099710526
6.286286286286288e-07,0.9508213096892476,0.04917869031075193
6.291291291291293e-07,0.9507647951707499,0.049235204829249715
6.296296296296298e-07,0.9507084085357801,0.049291591464219436
6.301301301301302e-07,0.9506521529858268,0.04934784701417256
6.306306306306307e-07,0.9505960318400833,0.04940396815991542
6.311311311311312e-07,0.9505400485402444,0.049459951459755444
6.316316316316317e-07,0.9504842066555003,0.04951579334449874
6.321321321321322e-07,0.9504285098877705,0.04957149011222965
6.326326326326327e-07,0.9503729620771397,0.04962703792286082
6.331331331331332e-07,0.9503175672075567,0.049682432792442735
6.336336336336337e-07,0.9502623294127805,0.049737670587219014
6.341341341341342e-07,0.9502072529825856,0.04979274701741486
6.346346346346348e-07,0.9501523423692577,0.04984765763074257
6.351351351351353e-07,0.9500976021943832,0.04990239780561638
6.356356356356357e-07,0.9500430372559497,0.0499569627440505
6.361361361361362e-07,0.9499886525357656,0.05001134746423465
6.366366366366367e-07,0.9499344532072409,0.0500655467927585
6.371371371371372e-07,0.9498804446435242,0.05011955535647517
6.376376376376377e-07,0.9498266324260164,0.05017336757398348
6.381381381381382e-07,0.9497730223533023,0.05022697764669698
6.386386386386388e-07,0.9497196204505072,0.05028037954949312
6.391391391391393e-07,0.949666432979091,0.05033356702090828
6.396396396396398e-07,0.949613466447146,0.05038653355285399
6.401401401401403e-07,0.9495607276201646,0.05043927237983561
6.406406406406408e-07,0.9495082235323727,0.05049177646762786
6.411411411411413e-07,0.949455961498599,0.05054403850140069
6.416416416416417e-07,0.949403949126763,0.05059605087323753
6.421421421421422e-07,0.9493521943309671,0.05064780566903253
6.426426426426427e-07,0.9493007053452858,0.05069929465471411
6.431431431431432e-07,0.9492494907382365,0.05075050926176324
6.436436436436437e-07,0.9491985594280152,0.05080144057198411
6.441441441441442e-07,0.9491479206985217,0.0508520793014785
6.446446446446447e-07,0.9490975842162216,0.05090241578377813
6.451451451451452e-07,0.949047560047918,0.05095243995208126
6.456456456456458e-07,0.9489978586794584,0.05100214132054104
6.461461461461463e-07,0.9489484910354545,0.05105150896454515
6.466466466466468e-07,0.9488994685000802,0.05110053149992
6.471471471471472e-07,0.9488508029390015,0.05114919706099792
6.476476476476477e-07,0.9488025067225319,0.051197493277467816
6.481481481481482e-07,0.9487545927500642,0.05124540724993528
6.486486486486487e-07,0.9487070744758943,0.05129292552410546
6.491491491491492e-07,0.9486599659365003,0.051340034063499046
6.496496496496498e-07,0.9486132817793965,0.05138671822060299
6.501501501501503e-07,0.948567037293646,0.051432962706353655
6.506506506506508e-07,0.9485212484421656,0.051478751557834115
6.511511511511513e-07,0.94847593189593,0.05152406810406991
6.516516516516518e-07,0.9484311050702139,0.05156889492978611
6.521521521521523e-07,0.9483867861630113,0.05161321383698817
6.526526526526528e-07,0.9483429941957902,0.05165700580420962
6.531531531531532e-07,0.9482997490567379,0.05170025094326222
6.536536536536537e-07,0.94825707154669,0.05174292845330945
6.541541541541542e-07,0.9482149834279316,0.05178501657206844
6.546546546546547e-07,0.948173507476075,0.05182649252392518
6.551551551551552e-07,0.9481326675352555,0.05186733246474437
6.556556556556557e-07,0.9480924885768874,0.051907511423112326
6.561561561561563e-07,0.9480529967622461,0.051947003237753545
6.566566566566568e-07,0.9480142195091795,0.0519857804908206
6.571571571571573e-07,0.9479761855632582,0.05202381443674153
6.576576576576578e-07,0.9479389250737308,0.05206107492626941
6.581581581581583e-07,0.9479024696746351,0.05209753032536453
6.586586586586587e-07,0.9478668525715205,0.052133147428479354
6.591591591591592e-07,0.9478321086341966,0.052167891365803375
6.596596596596597e-07,0.9477982744960336,0.05220172550396615
6.601601601601603e-07,0.9477653886603488,0.052234611339650704
6.606606606606608e-07,0.9477334916144768,0.05226650838552402
6.611611611611613e-07,0.9477026259521755,0.052297374047824585
6.616616616616618e-07,0.9476728365051102,0.05232716349488942
6.621621621621623e-07,0.9476441704841807,0.052355829515818804
6.626626626626628e-07,0.9476166776315874,0.05238332236841242
6.631631631631633e-07,0.9475904103845985,0.052409589615401084
